Energy Area (Current) Area (2.5m Rh coated) Area (2.5m Ni coated) Area (2.5m Ir coated)
0.100000 4.019042 2.664042 2.084631 2.377880
0.100500 4.030497 2.671062 2.089817 2.380494
0.101000 4.041979 2.678096 2.095012 2.383103
0.101500 4.053082 2.684876 2.100006 2.385466
0.102000 4.064209 2.691669 2.105010 2.387823
0.102500 4.074954 2.698206 2.109812 2.389934
0.103000 4.085721 2.704756 2.114622 2.392039
0.103500 4.096102 2.711047 2.119228 2.393898
0.104000 4.106505 2.717350 2.123842 2.395750
0.104500 4.116517 2.723391 2.128251 2.397356
0.105000 4.126550 2.729444 2.132667 2.398955
0.105500 4.137233 2.735924 2.137415 2.400913
0.106000 4.147938 2.742417 2.142172 2.402864
0.106500 4.161683 2.750915 2.148493 2.406552
0.107000 4.175464 2.759434 2.154829 2.410236
0.107500 4.189045 2.767817 2.161057 2.413778
0.108000 4.202662 2.776221 2.167299 2.417315
0.108500 4.216076 2.784486 2.173432 2.420710
0.109000 4.229526 2.792772 2.179578 2.424099
0.109500 4.242769 2.800919 2.185613 2.427346
0.110000 4.256047 2.809084 2.191662 2.430587
0.110500 4.268178 2.817109 2.197599 2.433684
0.111000 4.280336 2.825153 2.203549 2.436776
0.111500 4.292279 2.833054 2.209386 2.439724
0.112000 4.304248 2.840973 2.215236 2.442666
0.112500 4.316000 2.848749 2.220971 2.445464
0.113000 4.327778 2.856543 2.226719 2.448255
0.113500 4.337887 2.863234 2.231606 2.450083
0.114000 4.348015 2.869938 2.236501 2.451903
0.114500 4.353813 2.873784 2.239168 2.451267
0.115000 4.359616 2.877634 2.241836 2.450625
0.115500 4.365235 2.881362 2.244410 2.449869
0.116000 4.370860 2.885094 2.246986 2.449106
0.116500 4.376301 2.888705 2.249465 2.448230
0.117000 4.381747 2.892319 2.251947 2.447348
0.117500 4.387007 2.895810 2.254333 2.446352
0.118000 4.392273 2.899305 2.256721 2.445351
0.118500 4.397352 2.902677 2.259012 2.444236
0.119000 4.402436 2.906053 2.261305 2.443115
0.119500 4.407333 2.909305 2.263502 2.441882
0.120000 4.412234 2.912560 2.265700 2.440643
0.120500 4.416963 2.915691 2.267800 2.439291
0.121000 4.421696 2.918825 2.269903 2.437934
0.121500 4.441452 2.931876 2.279715 2.444837
0.122000 4.461279 2.944973 2.289561 2.451745
0.122500 4.520796 2.984271 2.319771 2.480393
0.123000 4.580946 3.023988 2.350297 2.509282
0.123500 4.641898 3.064233 2.381224 2.538501
0.124000 4.703496 3.104906 2.412475 2.567965
0.124500 4.765913 3.146119 2.444136 2.597763
0.125000 4.828991 3.187769 2.476127 2.627810
0.125500 4.892903 3.229971 2.508536 2.658198
0.126000 4.957492 3.272618 2.541283 2.688837
0.126500 5.022933 3.315829 2.574457 2.719822
0.127000 5.089064 3.359496 2.607975 2.751064
0.127500 5.156066 3.403738 2.641929 2.782656
0.128000 5.223772 3.448445 2.676234 2.814509
0.128500 5.292368 3.493739 2.710985 2.846718
0.129000 5.361683 3.539509 2.746094 2.879191
0.129500 5.441054 3.591917 2.786343 2.916931
0.130000 5.521363 3.644945 2.827060 2.955030
0.130500 5.623458 3.713237 2.879602 3.005340
0.131000 5.727048 3.782550 2.932920 3.056289
0.131500 5.832481 3.853112 2.987191 3.108057
0.132000 5.939452 3.924725 3.042260 3.160480
0.132500 6.048316 3.997625 3.098310 3.213742
0.133000 6.158762 4.071604 3.155180 3.267673
0.133500 6.271155 4.146907 3.213058 3.322463
0.134000 6.385174 4.223321 3.271780 3.377937
0.134500 6.501194 4.301097 3.331540 3.434291
0.135000 6.618885 4.380015 3.392166 3.491344
0.135500 6.738634 4.460334 3.453859 3.549298
0.136000 6.860100 4.541828 3.516443 3.607966
0.136500 6.983681 4.624762 3.580123 3.667556
0.137000 7.109027 4.708904 3.644720 3.727877
0.137500 7.232590 4.791906 3.708415 3.787068
0.138000 7.357854 4.876076 3.772994 3.846955
0.138500 7.476548 4.955930 3.834216 3.903215
0.139000 7.596758 5.036829 3.896227 3.960079
0.139500 7.718824 5.118997 3.959202 4.017719
0.140000 7.842443 5.202236 4.022985 4.075976
0.140500 7.964650 5.283236 4.087756 4.135024
0.141000 8.088341 5.365219 4.153355 4.194699
0.141500 8.213871 5.448419 4.219966 4.255182
0.142000 8.340917 5.532624 4.287426 4.316303
0.142500 8.469845 5.618074 4.355922 4.378247
0.143000 8.600325 5.704551 4.425288 4.440842
0.143500 8.732730 5.792303 4.495716 4.504275
0.144000 8.866722 5.881105 4.567034 4.568371
0.144500 9.002682 5.971211 4.639441 4.633322
0.145000 9.140266 6.062392 4.712759 4.698947
0.145500 9.278831 6.154220 4.786659 4.764912
0.146000 9.419031 6.247130 4.861479 4.831553
0.146500 9.559179 6.340004 4.936350 4.898001
0.147000 9.700950 6.433952 5.012138 4.965113
0.147500 9.844703 6.529211 5.089028 5.033069
0.148000 9.990113 6.625568 5.166855 5.101700
0.148500 10.137547 6.723264 5.245810 5.171190
0.149000 10.286674 6.822080 5.325724 5.241367
0.149500 10.437869 6.922265 5.406793 5.312418
0.150000 10.590793 7.023594 5.488841 5.384166
0.150500 10.741529 7.126322 5.572071 5.456804
0.151000 10.893900 7.230217 5.656303 5.530151
0.151500 11.048294 7.335541 5.741744 5.604403
0.152000 11.204355 7.442057 5.828209 5.679375
0.152500 11.362481 7.550031 5.915910 5.755267
0.153000 11.522305 7.659224 6.004660 5.831892
0.153500 11.685748 7.770912 6.095462 5.910218
0.154000 11.850957 7.883866 6.187356 5.989304
0.154500 12.021077 8.000182 6.281988 6.070736
0.155000 12.193058 8.117832 6.377769 6.152969
0.155500 12.367294 8.237081 6.474911 6.236199
0.156000 12.543427 8.357692 6.573228 6.320242
0.156500 12.721860 8.479935 6.672937 6.405299
0.157000 12.902224 8.603569 6.773846 6.491182
0.157500 13.084935 8.728869 6.876178 6.578096
0.158000 13.269614 8.855588 6.979738 6.665848
0.158500 13.456684 8.984008 7.084752 6.754648
0.159000 13.645760 9.113876 7.191022 6.844299
0.159500 13.837274 9.245480 7.298777 6.935015
0.160000 14.030832 9.378561 7.407816 7.026595
0.160500 14.218362 9.513415 7.518374 7.119258
0.161000 14.407718 9.649775 7.630242 7.212797
0.161500 14.592576 9.783405 7.740073 7.304047
0.162000 14.779154 9.918472 7.851160 7.396121
0.162500 14.956584 10.047679 7.957727 7.483580
0.163000 15.135545 10.178190 8.065443 7.571769
0.163500 15.316408 10.310259 8.174512 7.660872
0.164000 15.498822 10.443655 8.284753 7.750714
0.164500 15.683165 10.578638 8.396373 7.841483
0.165000 15.869079 10.714972 8.509188 7.932999
0.165500 16.056951 10.852922 8.623411 8.025454
0.166000 16.246415 10.992246 8.738851 8.118666
0.166500 16.437863 11.133216 8.855727 8.212830
0.167000 16.630924 11.275585 8.973844 8.307760
0.167500 16.825998 11.419630 9.093425 8.403654
0.168000 17.022706 11.565098 9.214272 8.500322
0.168500 17.221455 11.712272 9.336611 8.597968
0.169000 17.421858 11.860895 9.460240 8.696397
0.169500 17.618767 12.007461 9.582364 8.793039
0.170000 17.817253 12.155428 9.705741 8.890426
0.170500 17.996363 12.299255 9.825946 8.984508
0.171000 18.176606 12.444396 9.947334 9.079272
0.171500 18.358333 12.591098 10.070105 9.174897
0.172000 18.541199 12.739133 10.194079 9.271212
0.172500 18.725560 12.888756 10.319460 9.368395
0.173000 18.911066 13.039734 10.446066 9.466275
0.173500 19.098077 13.192324 10.574105 9.565034
0.174000 19.286239 13.346291 10.703390 9.664496
0.174500 19.475916 13.501897 10.834133 9.764845
0.175000 19.666749 13.658902 10.966145 9.865904
0.175500 19.859108 13.817572 11.099641 9.967861
0.176000 20.052628 13.977663 11.234427 10.070533
0.176500 20.247684 14.139447 11.370725 10.174113
0.177000 20.443905 14.302673 11.508335 10.278414
0.177500 20.688931 14.500742 11.674150 10.407406
0.178000 20.935894 14.700938 11.841863 10.537539
0.178500 21.251903 14.950486 12.049538 10.702613
0.179000 21.571229 15.203334 12.260107 10.869569
0.179500 21.894469 15.459928 12.473932 11.038711
0.180000 22.221068 15.719895 12.690720 11.209766
0.180500 22.549701 15.983402 12.910843 11.383045
0.181000 22.881670 16.250347 13.133999 11.558268
0.181500 23.217596 16.521198 13.360572 11.735755
0.182000 23.556897 16.795562 13.590249 11.915216
0.182500 23.900210 17.073918 13.823425 12.096980
0.183000 24.246937 17.355865 14.059778 12.280750
0.183500 24.597728 17.641892 14.299714 12.466861
0.184000 24.951971 17.931587 14.542903 12.655011
0.184500 25.310332 18.225453 14.789759 12.845541
0.185000 25.672184 18.523066 15.039943 13.038141
0.185500 26.038282 18.824996 15.293927 13.233200
0.186000 26.407911 19.130754 15.551318 13.430362
0.186500 26.781864 19.440943 15.812612 13.630037
0.187000 27.159388 19.755043 16.077394 13.831848
0.187500 27.541191 20.073598 16.346113 14.036163
0.188000 27.926602 20.396147 16.618401 14.242646
0.188500 28.316343 20.723248 16.894717 14.451673
0.189000 28.709728 21.054426 17.174682 14.662900
0.189500 29.107496 21.390254 17.458771 14.876713
0.190000 29.508942 21.730245 17.746592 15.092759
0.190500 29.922529 22.074984 18.038631 15.311430
0.191000 30.340085 22.423974 18.334489 15.532368
0.191500 30.762385 22.777814 18.634661 15.755972
0.192000 31.188698 23.135991 18.938737 15.981875
0.192500 31.619815 23.499121 19.247228 16.210487
0.193000 32.054991 23.866679 19.559710 16.441429
0.193500 32.472502 24.222487 19.862926 16.663561
0.194000 32.893659 24.582410 20.169876 16.887811
0.194500 33.292201 24.926812 20.464446 17.100696
0.195000 33.693913 25.274949 20.762433 17.315451
0.195500 34.099449 25.627337 21.064266 17.532416
0.196000 34.508178 25.983529 21.369586 17.751273
0.196500 34.920764 26.344050 21.678830 17.972367
0.197000 35.336565 26.708442 21.991628 18.195372
0.197500 35.756259 27.077244 22.308431 18.420643
0.198000 36.179189 27.449986 22.628859 18.647845
0.198500 36.606044 27.827217 22.953371 18.877339
0.199000 37.036157 28.208460 23.281579 19.108785
0.199500 37.470227 28.594273 23.613954 19.342550
0.200000 37.907576 28.984168 23.950098 19.578288
0.200500 38.371631 29.378717 24.290490 19.816372
0.201000 38.839633 29.777419 24.634726 20.056448
0.201500 39.290125 30.163822 24.969191 20.287438
0.202000 39.744205 30.554095 25.307263 20.520235
0.202500 40.178053 30.929921 25.633766 20.742542
0.203000 40.615104 31.309308 25.963615 20.966459
0.203500 41.055964 31.692741 26.297216 21.192298
0.204000 41.500054 32.079790 26.634221 21.419760
0.204500 41.947988 32.470950 26.975046 21.649159
0.205000 42.399176 32.865783 27.319334 21.880192
0.205500 42.854244 33.264790 27.667509 22.113181
0.206000 43.312592 33.667528 28.019208 22.347814
0.206500 43.774853 34.074507 28.374864 22.584420
0.207000 44.240420 34.485272 28.734104 22.822681
0.207500 44.709935 34.900346 29.097370 23.062930
0.208000 45.182779 35.319264 29.464283 23.304847
0.208500 45.659606 35.742558 29.835293 23.548768
0.209000 46.139787 36.169754 30.210012 23.794367
0.209500 46.596707 36.579981 30.571003 24.027920
0.210000 47.056585 36.993780 30.935420 24.262948
0.210500 47.532018 37.389829 31.290146 24.531926
0.211000 48.010933 37.789124 31.648124 24.803243
0.211500 48.493882 38.192107 32.009731 25.077192
0.212000 48.980351 38.598379 32.374640 25.353515
0.212500 49.470898 39.008388 32.743237 25.632509
0.213000 49.965001 39.421731 33.115188 25.913912
0.213500 50.463227 39.838862 33.490885 26.198026
0.214000 50.965046 40.259370 33.869989 26.484583
0.214500 51.471033 40.683718 34.252898 26.773891
0.215000 51.980649 41.111486 34.639268 27.065678
0.215500 52.494480 41.543147 35.029503 27.360257
0.216000 53.011976 41.978272 35.423253 27.657350
0.216500 53.533732 42.417342 35.820929 27.957276
0.217000 54.059190 42.859922 36.222175 28.259753
0.217500 54.552366 43.277473 36.602859 28.545959
0.218000 55.048749 43.698121 36.986743 28.834435
0.218500 55.514608 44.095082 37.351144 29.107502
0.219000 55.983241 44.494777 37.718416 29.382593
0.219500 56.455117 44.897585 38.088888 29.659958
0.220000 56.929788 45.303158 38.462269 29.939371
0.220500 57.421887 45.709411 38.838894 30.221088
0.221000 57.917079 46.118410 39.218468 30.504878
0.221500 58.415847 46.530545 39.601329 30.791001
0.222000 58.917736 46.945455 39.987180 31.079222
0.222500 59.423235 47.363535 40.376363 31.369806
0.223000 59.931883 47.784420 40.768576 31.662514
0.223500 60.444175 48.208509 41.164166 31.957614
0.224000 60.959645 48.635432 41.562827 32.254864
0.224500 61.478794 49.065595 41.964911 32.554536
0.225000 62.001148 49.498622 42.370107 32.856385
0.225500 62.468278 49.887856 42.738449 33.129428
0.226000 62.937915 50.279372 43.109354 33.404241
0.226500 63.359703 50.632934 43.448299 33.654081
0.227000 63.783464 50.988331 43.789378 33.905373
0.227500 64.209562 51.345857 44.132847 34.158316
0.228000 64.637643 51.705232 44.478473 34.412727
0.228500 65.068077 52.066755 44.826516 34.668804
0.229000 65.500506 52.430141 45.176740 34.926363
0.229500 65.935304 52.795692 45.529408 35.185605
0.230000 66.372108 53.163122 45.884280 35.446343
0.230500 66.836009 53.532734 46.241622 35.708781
0.231000 67.302311 53.904239 46.601193 35.972729
0.231500 67.771398 54.277945 46.963262 36.238395
0.232000 68.242906 54.653558 47.327584 36.505585
0.232500 68.717222 55.031390 47.694431 36.774510
0.233000 69.193978 55.411144 48.063554 37.044974
0.233500 69.648079 55.772725 48.417514 37.303538
0.234000 70.104373 56.136031 48.773560 37.563502
0.234500 70.542967 56.485135 49.117848 37.814206
0.235000 70.983569 56.835817 49.464083 38.066205
0.235500 71.426496 57.188332 49.812489 38.319673
0.236000 71.871444 57.542435 50.162860 38.574447
0.236500 72.318734 57.898382 50.515425 38.830703
0.237000 72.768059 58.255929 50.869974 39.088277
0.237500 73.219742 58.615332 51.226738 39.347344
0.238000 73.673473 58.976345 51.585506 39.607742
0.238500 74.129579 59.339229 51.946511 39.869646
0.239000 74.587747 59.703732 52.309539 40.132891
0.239500 75.048307 60.070118 52.674825 40.397656
0.240000 75.510942 60.438134 53.042155 40.663773
0.240500 75.987093 60.808046 53.411766 40.931423
0.241000 76.465488 61.179599 53.783440 41.200438
0.241500 76.922166 61.533624 54.140315 41.457903
0.242000 77.380872 61.889121 54.499088 41.716612
0.242500 77.824146 62.232128 54.847455 41.967149
0.243000 78.269299 62.576493 55.197607 42.218847
0.243500 78.716617 62.922440 55.549745 42.471859
0.244000 79.165827 63.269753 55.903683 42.726041
0.244500 79.617216 63.618657 56.259626 42.981548
0.245000 80.070509 63.968935 56.617384 43.238233
0.245500 80.525995 64.320813 56.977166 43.496254
0.246000 80.983398 64.674072 57.338779 43.755461
0.246500 81.443009 65.028941 57.702433 44.016015
0.247000 81.904548 65.385197 58.067935 44.277764
0.247500 82.368310 65.743074 58.435496 44.540870
0.248000 82.834014 66.102344 58.804921 44.805181
0.248500 83.301954 66.463244 59.176423 45.070859
0.249000 83.771848 66.825546 59.549806 45.337751
0.249500 84.222129 67.172048 59.909732 45.594183
0.250000 84.674189 67.519816 60.271400 45.851732
0.250500 85.130700 67.857354 60.624544 46.102586
0.251000 85.589079 68.196074 60.979346 46.354495
0.251500 86.049600 68.536191 61.336003 46.607606
0.252000 86.512002 68.877495 61.694332 46.861779
0.252500 86.976560 69.220203 62.054532 47.117163
0.253000 87.443011 69.564103 62.416416 47.373615
0.253500 87.911633 69.909414 62.780187 47.631288
0.254000 88.382160 70.255923 63.145656 47.890036
0.254500 88.854874 70.603850 63.513027 48.150013
0.255000 89.329505 70.952980 63.882111 48.411073
0.255500 89.806336 71.303535 64.253112 48.673371
0.256000 90.285098 71.655299 64.625839 48.936759
0.256500 90.766076 72.008494 65.000500 49.201393
0.257000 91.248996 72.362903 65.376901 49.467126
0.257500 91.710894 72.700318 65.738583 49.721506
0.258000 92.174559 73.038817 66.101869 49.976888
0.258500 92.625877 73.367219 66.456635 50.225619
0.259000 93.078861 73.696630 66.812927 50.475297
0.259500 93.533752 74.027238 67.170921 50.726051
0.260000 93.990320 74.358859 67.530452 50.977757
0.260500 94.455890 74.618626 67.891697 51.230548
0.261000 94.923222 74.878634 68.254492 51.484296
0.261500 95.392559 75.139067 68.619013 51.739136
0.262000 95.863668 75.399734 68.985095 51.994939
0.262500 96.336795 75.660821 69.352917 52.251839
0.263000 96.811704 75.922134 69.722311 52.509710
0.263500 97.288645 76.183862 70.093459 52.768685
0.264000 97.767379 76.445809 70.466190 53.028636
0.264500 98.248157 76.708163 70.840688 53.289699
0.265000 98.730739 76.970731 71.216781 53.551743
0.265500 99.242049 77.254461 71.613900 53.829373
0.266000 99.755385 77.538500 72.012794 54.108105
0.266500 100.286127 77.834773 72.424571 54.396280
0.267000 100.819032 78.131409 72.838235 54.685633
0.267500 101.354355 78.428593 73.253972 54.976301
0.268000 101.891855 78.726131 73.671611 55.268153
0.268500 102.431789 79.024211 74.091339 55.561328
0.269000 102.973915 79.322637 74.512984 55.855696
0.269500 103.518490 79.621599 74.936734 56.151396
0.270000 104.065271 79.920898 75.362416 56.448296
0.270500 104.636639 80.220726 75.790219 56.746537
0.271000 105.210476 80.520883 76.219969 57.045986
0.271500 105.787046 80.821562 76.651858 57.346784
0.272000 106.366104 81.122562 77.085708 57.648798
0.272500 106.947915 81.424075 77.521714 57.952171
0.273000 107.532231 81.725902 77.959696 58.256767
0.273500 108.109671 82.020914 78.392855 58.557505
0.274000 108.689551 82.316193 78.827942 58.859431
0.274500 109.267104 82.608126 79.261501 59.159964
0.275000 109.847071 82.900298 79.696971 59.461670
0.275500 110.429696 83.192882 80.134530 59.764681
0.276000 111.014751 83.485698 80.574015 60.068873
0.276500 111.602481 83.778917 81.015604 60.374377
0.277000 112.192660 84.072358 81.459133 60.681069
0.277500 112.785532 84.366195 81.904781 60.989083
0.278000 113.380869 84.660245 82.352384 61.298291
0.278500 113.978919 84.954682 82.802123 61.608829
0.279000 114.579450 85.249323 83.253831 61.920569
0.279500 115.182713 85.544343 83.707690 62.233647
0.280000 115.788475 85.839556 84.163533 62.547935
0.280500 116.386815 86.135139 84.621544 62.863568
0.281000 116.987560 86.430907 85.081553 63.180419
0.281500 112.352035 82.863161 81.732589 60.669625
0.282000 107.865046 79.416510 78.489879 58.239630
0.282500 101.255309 74.421037 73.700318 54.664220
0.283000 94.974221 69.683482 69.147417 51.267076
0.283500 88.987362 65.177387 64.806301 48.029554
0.284000 83.306819 60.910477 60.685952 44.958122
0.284500 77.900899 56.858456 56.763455 42.035617
0.285000 72.779805 53.027718 53.046410 39.267493
0.285500 67.914401 49.395988 49.513744 36.637974
0.286000 63.313178 45.968461 46.171800 34.151591
0.286500 58.949396 42.724751 43.001231 31.793872
0.287000 54.829996 39.668978 40.007240 29.568512
0.287500 50.930482 36.782519 37.172096 27.462256
0.288000 47.256399 34.068535 34.499976 25.478049
0.288500 43.785348 31.510046 31.974658 23.603774
0.289000 40.521625 29.109366 29.599400 21.841707
0.289500 39.815398 28.550970 29.091498 21.458424
0.290000 39.119116 28.001479 28.590586 21.080591
0.290500 39.453630 28.190630 28.843339 21.258529
0.291000 39.790391 28.380506 29.097880 21.437637
0.291500 40.130021 28.571539 29.354664 21.618249
0.292000 40.471928 28.763297 29.613262 21.800046
0.292500 40.816741 28.956218 29.874134 21.983367
0.293000 41.163861 29.149865 30.136845 22.167888
0.293500 41.513927 29.344681 30.401863 22.353954
0.294000 41.866332 29.540223 30.668746 22.541235
0.294500 42.221721 29.736939 30.937969 22.730081
0.295000 42.579480 29.934383 31.209083 22.920159
0.295500 42.940263 30.133006 31.482569 23.111821
0.296000 43.303447 30.332358 31.757973 23.304731
0.296500 43.669696 30.532893 32.035783 23.499246
0.297000 44.038378 30.734157 32.315537 23.695025
0.297500 44.389520 30.922229 32.582578 23.881322
0.298000 44.742859 31.110897 32.851384 24.068759
0.298500 45.090863 31.294925 33.116426 24.253282
0.299000 45.440989 31.479499 33.383180 24.438904
0.299500 45.793827 31.665018 33.652079 24.625942
0.300000 46.148813 31.851081 33.922711 24.814091
0.300500 46.509134 31.891382 34.195517 25.003672
0.301000 46.871670 31.929880 34.470078 25.194378
0.301500 47.237027 31.966952 34.746841 25.386533
0.302000 47.604626 32.002171 35.025383 25.579826
0.302500 47.975080 32.035912 35.306154 25.774585
0.303000 48.347805 32.067748 35.588726 25.970495
0.303500 48.723419 32.098053 35.873557 26.167889
0.304000 49.101332 32.126401 36.160213 26.366448
0.304500 49.482169 32.153165 36.449155 26.566507
0.305000 49.865332 32.177917 36.739946 26.767745
0.305500 50.230300 32.187474 37.017461 26.959147
0.306000 50.597369 32.194994 37.296655 27.151609
0.306500 50.959586 32.196053 37.572400 27.341399
0.307000 51.323842 32.195037 37.849777 27.532217
0.307500 51.690696 32.192266 38.129199 27.724360
